wavenumber,intensity
600.2353,0.1636914
600.7174,0.1633956
601.1995,0.1631068
601.6816,0.1628441
602.1638,0.1626028
602.6459,0.1623662
603.128,0.1621233
603.6101,0.1618805
604.0922,0.1616622
604.5743,0.1614953
605.0565,0.1613922
605.5386,0.1613385
606.0207,0.1612971
606.5028,0.1612225
606.9849,0.1610833
607.467,0.1608783
607.9492,0.1606368
608.4313,0.160405
608.9134,0.1602204
609.3955,0.1600994
609.8776,0.1600292
610.3597,0.15998
610.8419,0.1599202
611.324,0.1598331
611.8061,0.1597215
612.2882,0.1595997
612.7703,0.1594799
613.2524,0.1593615
613.7346,0.1592295
614.2167,0.1590646
614.6988,0.1588558
615.1809,0.1586106
615.663,0.1583533
616.1451,0.1581157
616.6273,0.1579223
617.1094,0.1577776
617.5915,0.157667
618.0736,0.1575666
618.5557,0.1574581
619.0378,0.1573367
619.52,0.1572106
620.0021,0.1570901
620.4842,0.1569757
620.9663,0.1568527
621.4484,0.1566962
621.9305,0.1564834
622.4127,0.1562094
622.8948,0.1558931
623.3769,0.1555727
623.859,0.1552864
624.3411,0.155057
624.8232,0.1548801
625.3054,0.154729
625.7875,0.1545684
626.2696,0.1543742
626.7517,0.1541465
627.2338,0.153907
627.7159,0.1536853
628.1981,0.1534998
628.6802,0.153348
629.1623,0.153207
629.6444,0.1530485
630.1265,0.152853
630.6086,0.152623
631.0908,0.15238
631.5729,0.1521527
632.055,0.1519576
632.5371,0.1517882
633.0192,0.1516157
633.5013,0.1514048
633.9835,0.151131
634.4656,0.1507961
634.9477,0.1504271
635.4298,0.1500652
635.9119,0.1497456
636.394,0.1494792
636.8762,0.1492504
637.3583,0.1490263
637.8404,0.1487758
638.3225,0.1484821
638.8046,0.1481503
639.2867,0.1478001
639.7689,0.1474553
640.251,0.14713
640.7331,0.1468258
641.2152,0.1465362
641.6973,0.1462563
642.1794,0.14599
642.6616,0.1457502
643.1437,0.1455494
643.6258,0.1453902
644.1079,0.1452566
644.59,0.1451196
645.0721,0.1449454
645.5543,0.144712
646.0364,0.1444193
646.5185,0.1440882
647.0006,0.1437512
647.4827,0.1434345
647.9648,0.1431502
648.447,0.1428911
648.9291,0.1426401
649.4112,0.1423813
649.8933,0.1421116
650.3754,0.1418416
650.8575,0.1415894
651.3397,0.1413684
651.8218,0.14118
652.3039,0.1410135
652.786,0.1408541
653.2681,0.1406924
653.7502,0.1405309
654.2324,0.1403814
654.7145,0.140256
655.1966,0.1401557
655.6787,0.1400658
656.1608,0.1399589
656.6429,0.1398082
657.1251,0.139602
657.6072,0.1393503
658.0893,0.1390812
658.5714,0.1388265
659.0535,0.1386081
659.5356,0.1384263
660.0178,0.1382625
660.4999,0.1380899
660.982,0.1378909
661.4641,0.1376663
661.9462,0.1374338
662.4283,0.1372157
662.9105,0.1370247
663.3926,0.1368533
663.8747,0.136677
664.3568,0.1364644
664.8389,0.1361931
665.321,0.135859
665.8032,0.1354814
666.2853,0.1351
666.7674,0.1347657
667.2495,0.1345314
667.7316,0.1344208
668.2137,0.1344065
668.6959,0.1344137
669.178,0.1343769
669.6601,0.1342766
670.1422,0.1341295
670.6243,0.1339617
671.1064,0.1337899
671.5886,0.1336177
672.0707,0.1334386
672.5528,0.1332442
673.0349,0.1330311
673.517,0.1328033
673.9991,0.1325709
674.4813,0.1323427
674.9634,0.1321201
675.4455,0.1318965
675.9276,0.1316614
676.4097,0.1314085
676.8918,0.1311409
677.374,0.1308714
677.8561,0.1306157
678.3382,0.1303857
678.8203,0.1301825
679.3024,0.1299976
679.7845,0.1298184
680.2667,0.1296371
680.7488,0.1294553
681.2309,0.1292839
681.713,0.1291343
682.1951,0.1290118
682.6772,0.1289084
683.1594,0.1288062
683.6415,0.1286836
684.1236,0.1285259
684.6057,0.128333
685.0878,0.1281189
685.5699,0.1279045
686.0521,0.127707
686.5342,0.1275336
687.0163,0.1273798
687.4984,0.1272349
687.9805,0.1270893
688.4626,0.1269403
688.9448,0.126792
689.4269,0.1266499
689.909,0.1265136
690.3911,0.1263739
690.8732,0.1262146
691.3553,0.126022
691.8375,0.1257924
692.3196,0.1255379
692.8017,0.1252815
693.2838,0.1250499
693.7659,0.124861
694.248,0.1247163
694.7302,0.1246018
695.2123,0.1244947
695.6944,0.1243751
696.1765,0.1242318
696.6586,0.1240663
697.1407,0.1238865
697.6229,0.1237005
698.105,0.12351
698.5871,0.1233105
699.0692,0.1230959
699.5513,0.1228647
700.0334,0.1226243
700.5156,0.1223889
700.9977,0.122172
701.4798,0.1219802
701.9619,0.1218085
702.444,0.1216436
702.9261,0.1214701
703.4083,0.1212801
703.8904,0.1210768
704.3725,0.1208734
704.8546,0.120684
705.3367,0.1205141
705.8188,0.1203553
706.301,0.1201875
706.7831,0.1199885
707.2652,0.1197435
707.7473,0.1194542
708.2294,0.1191383
708.7115,0.1188236
709.1937,0.118534
709.6758,0.1182828
710.1579,0.1180692
710.64,0.1178823
711.1221,0.1177089
711.6042,0.1175405
712.0864,0.1173764
712.5685,0.1172209
713.0506,0.1170779
713.5327,0.1169458
714.0148,0.1168168
714.4969,0.1166803
714.9791,0.1165285
715.4612,0.1163602
715.9433,0.1161807
716.4254,0.1159969
716.9075,0.1158123
717.3896,0.115623
717.8718,0.1154185
718.3539,0.1151873
718.836,0.1149241
719.3181,0.1146341
719.8002,0.1143329
720.2823,0.1140383
720.7645,0.1137643
721.2466,0.1135133
721.7287,0.1132769
722.2108,0.1130401
722.6929,0.1127898
723.175,0.1125204
723.6572,0.1122348
724.1393,0.1119412
724.6214,0.1116475
725.1035,0.1113578
725.5856,0.1110717
726.0677,0.1107875
726.5499,0.1105066
727.032,0.1102354
727.5141,0.1099839
727.9962,0.109761
728.4783,0.1095685
728.9604,0.1093989
729.4426,0.1092363
729.9247,0.1090647
730.4068,0.1088725
730.8889,0.1086586
731.371,0.1084311
731.8531,0.1082032
732.3353,0.1079859
732.8174,0.1077829
733.2995,0.1075904
733.7816,0.107401
734.2637,0.1072084
734.7458,0.1070117
735.228,0.1068153
735.7101,0.1066258
736.1922,0.1064476
736.6743,0.1062796
737.1564,0.106116
737.6385,0.1059497
738.1207,0.1057764
738.6028,0.1055975
739.0849,0.1054187
739.567,0.1052462
740.0491,0.1050825
740.5313,0.1049246
741.0134,0.1047657
741.4955,0.1045992
741.9776,0.1044239
742.4597,0.1042452
742.9418,0.1040732
743.424,0.1039171
743.9061,0.1037795
744.3882,0.1036548
744.8703,0.1035312
745.3524,0.1033974
745.8345,0.1032475
746.3167,0.1030857
746.7988,0.1029234
747.2809,0.1027743
747.763,0.1026465
748.2451,0.1025391
748.7272,0.1024426
749.2094,0.1023444
749.6915,0.1022341
750.1736,0.102109
750.6557,0.1019739
751.1378,0.1018378
751.6199,0.1017085
752.1021,0.1015882
752.5842,0.1014742
753.0663,0.1013618
753.5484,0.1012482
754.0305,0.1011354
754.5126,0.1010291
754.9948,0.1009356
755.4769,0.1008577
755.959,0.1007925
756.4411,0.1007331
756.9232,0.1006722
757.4053,0.1006071
757.8875,0.1005408
758.3696,0.1004808
758.8517,0.1004332
759.3338,0.1003991
759.8159,0.1003715
760.298,0.1003383
760.7802,0.100287
761.2623,0.1002106
761.7444,0.1001113
762.2265,0.09999885
762.7086,0.09988561
763.1907,0.09978012
763.6729,0.09968411
764.155,0.09959268
764.6371,0.09949867
765.1192,0.09939768
765.6013,0.09929169
766.0834,0.09918839
766.5656,0.09909742
767.0477,0.09902459
767.5298,0.09896923
768.0119,0.09892406
768.494,0.0988795
768.9761,0.09882721
769.4583,0.09876364
769.9404,0.09868974
770.4225,0.09860792
770.9046,0.09851854
771.3867,0.09841859
771.8688,0.09830303
772.351,0.09816902
772.8331,0.09801947
773.3152,0.09786426
773.7973,0.09771655
774.2794,0.09758729
774.7615,0.09747999
775.2437,0.09738836
775.7258,0.09729877
776.2079,0.09719588
776.69,0.09707037
777.1721,0.09692173
777.6542,0.09675831
778.1364,0.09659123
778.6185,0.09642958
779.1006,0.09627577
779.5827,0.09612616
780.0648,0.09597479
780.5469,0.0958187
781.0291,0.09566082
781.5112,0.09550948
781.9933,0.09537367
782.4754,0.09525795
782.9575,0.09515943
783.4396,0.0950688
783.9218,0.09497471
784.4039,0.09486884
784.886,0.09475004
785.3681,0.09462363
785.8502,0.09449751
786.3323,0.09437633
786.8145,0.09425838
787.2966,0.09413562
787.7787,0.09399824
788.2608,0.09383917
788.7429,0.09365857
789.225,0.09346333
789.7072,0.09326416
790.1893,0.09306988
790.6714,0.09288377
791.1535,0.09270358
791.6356,0.09252463
792.1177,0.09234446
792.5999,0.0921661
793.082,0.09199787
793.5641,0.09185033
794.0462,0.09173197
794.5283,0.0916452
795.0104,0.09158617
795.4926,0.09154685
795.9747,0.09151933
796.4568,0.09149776
796.9389,0.09147886
797.421,0.09146002
797.9031,0.09143628
798.3853,0.09139952
798.8674,0.09134097
799.3495,0.09125463
799.8316,0.09114221
800.3137,0.09101404
800.7958,0.09088766
801.278,0.0907803
801.7601,0.09070267
802.2422,0.09065507
802.7243,0.09062789
803.2064,0.09060621
803.6885,0.09057618
804.1707,0.09053151
804.6528,0.09047449
805.1349,0.09041402
805.617,0.09035967
806.0991,0.0903178
806.5812,0.09028888
807.0634,0.09026865
807.5455,0.09025069
808.0276,0.09022974
808.5097,0.09020291
808.9918,0.09016833
809.4739,0.09012325
809.9561,0.0900628
810.4382,0.08997987
810.9203,0.08986805
811.4024,0.08972446
811.8845,0.0895514
812.3666,0.08935558
812.8488,0.08914568
813.3309,0.08892933
813.813,0.08871065
814.2951,0.08849093
814.7772,0.08827052
815.2593,0.08805087
815.7415,0.08783541
816.2236,0.08762832
816.7057,0.08743157
817.1878,0.08724305
817.6699,0.08705618
818.152,0.08686278
818.6342,0.08665606
819.1163,0.08643451
819.5984,0.08620245
820.0805,0.08596812
820.5626,0.08573902
821.0447,0.08551835
821.5269,0.08530351
822.009,0.08508824
822.4911,0.08486657
822.9732,0.08463693
823.4553,0.08440388
823.9374,0.08417664
824.4196,0.08396496
824.9017,0.08377393
825.3838,0.08360204
825.8659,0.08344146
826.348,0.08328202
826.8301,0.08311465
827.3123,0.08293522
827.7944,0.0827449
828.2765,0.08254835
828.7586,0.08235065
829.2407,0.08215496
829.7228,0.08196241
830.205,0.08177292
830.6871,0.08158705
831.1692,0.08140663
831.6513,0.08123395
832.1334,0.08107013
832.6155,0.08091346
833.0977,0.08075961
833.5798,0.08060292
834.0619,0.08043931
834.544,0.08026858
835.0261,0.08009482
835.5082,0.07992467
835.9904,0.07976361
836.4725,0.0796138
836.9546,0.07947267
837.4367,0.07933478
837.9188,0.07919436
838.4009,0.07904878
838.8831,0.07889955
839.3652,0.07875153
839.8473,0.07860959
840.3294,0.0784759
840.8115,0.07834809
841.2936,0.07822028
841.7758,0.07808532
842.2579,0.07793776
842.74,0.07777624
843.2221,0.07760353
843.7042,0.07742526
844.1863,0.0772475
844.6685,0.07707576
845.1506,0.0769144
845.6327,0.07676644
846.1148,0.0766344
846.5969,0.07651957
847.079,0.0764212
847.5612,0.07633546
848.0433,0.07625583
848.5254,0.07617482
849.0075,0.07608614
849.4896,0.07598776
849.9717,0.07588271
850.4539,0.0757782
850.936,0.07568198
851.4181,0.07559942
851.9002,0.07553121
852.3823,0.07547375
852.8644,0.07542139
853.3466,0.07536986
853.8287,0.07531861
854.3108,0.07527062
854.7929,0.07523022
855.275,0.0751996
855.7571,0.07517678
856.2393,0.07515574
856.7214,0.07512932
857.2035,0.07509265
857.6856,0.07504665
858.1677,0.0749983
858.6498,0.07495895
859.132,0.07493923
859.6141,0.0749456
860.0962,0.0749784
860.5783,0.07503273
861.0604,0.07510108
861.5425,0.07517647
862.0247,0.07525501
862.5068,0.07533529
862.9889,0.07541688
863.471,0.0754985
863.9531,0.07557689
864.4352,0.07564786
864.9174,0.07570852
865.3995,0.07575928
865.8816,0.07580461
866.3637,0.07585136
866.8458,0.07590665
867.3279,0.07597438
867.8101,0.076054
868.2922,0.07614087
868.7743,0.07622871
869.2564,0.07631182
869.7385,0.07638667
870.2206,0.07645238
870.7028,0.07650955
871.1849,0.07655907
871.667,0.07660169
872.1491,0.07663883
872.6312,0.07667385
873.1133,0.07671239
873.5955,0.07676215
874.0776,0.07683025
874.5597,0.07692012
875.0418,0.07703012
875.5239,0.07715344
876.006,0.07728093
876.4882,0.07740383
876.9703,0.0775176
877.4524,0.07762272
877.9345,0.07772348
878.4166,0.07782485
878.8987,0.07792976
879.3809,0.07803784
879.863,0.07814639
880.3451,0.07825271
880.8272,0.07835669
881.3093,0.07846155
881.7914,0.07857294
882.2736,0.07869607
882.7557,0.07883287
883.2378,0.07898097
883.7199,0.07913464
884.202,0.07928779
884.6841,0.07943648
885.1663,0.07958092
885.6484,0.07972473
886.1305,0.07987308
886.6126,0.08002958
887.0947,0.08019481
887.5768,0.08036637
888.059,0.08054061
888.5411,0.08071458
889.0232,0.080887
889.5053,0.08105827
889.9874,0.08122882
890.4695,0.08139756
890.9517,0.08156164
891.4338,0.08171703
891.9159,0.08186061
892.398,0.08199169
892.8801,0.08211206
893.3622,0.08222443
893.8444,0.08232988
894.3265,0.08242624
894.8086,0.08250808
895.2907,0.08256926
895.7728,0.08260585
896.2549,0.08261928
896.7371,0.08261654
897.2192,0.08260845
897.7013,0.08260478
898.1834,0.0826111
898.6655,0.08262682
899.1476,0.0826465
899.6298,0.08266263
900.1119,0.08266912
900.594,0.08266362
901.0761,0.08264696
901.5582,0.08262121
902.0403,0.08258736
902.5225,0.08254444
903.0046,0.08249044
903.4867,0.08242469
903.9688,0.08234996
904.4509,0.08227272
904.933,0.08220112
905.4152,0.08214245
905.8973,0.08209961
906.3794,0.08207057
906.8615,0.08204951
907.3436,0.08203037
907.8257,0.08200931
908.3079,0.08198623
908.79,0.08196375
909.2721,0.08194496
909.7542,0.08193102
910.2363,0.08192052
910.7184,0.08191067
911.2006,0.08189997
911.6827,0.08189013
912.1648,0.08188649
912.6469,0.08189579
913.129,0.08192268
913.6111,0.08196735
914.0933,0.08202472
914.5754,0.08208679
915.0575,0.08214565
915.5396,0.08219743
916.0217,0.08224326
916.5038,0.08228803
916.986,0.08233679
917.4681,0.08239195
917.9502,0.08245176
918.4323,0.08251185
918.9144,0.08256789
919.3965,0.08261876
919.8787,0.0826674
920.3608,0.08271956
920.8429,0.08278038
921.325,0.08285122
921.8071,0.08292872
922.2892,0.08300638
922.7714,0.0830784
923.2535,0.08314272
923.7356,0.08320276
924.2177,0.08326572
924.6998,0.08333946
925.1819,0.08342816
925.6641,0.08353087
926.1462,0.08364233
926.6283,0.08375682
927.1104,0.08387145
927.5925,0.0839885
928.0746,0.08411431
928.5568,0.08425654
929.0389,0.08442011
929.521,0.08460491
930.0031,0.08480616
930.4852,0.08501723
930.9673,0.08523355
931.4495,0.08545458
931.9316,0.08568408
932.4137,0.08592737
932.8958,0.08618893
933.3779,0.08646968
933.86,0.08676747
934.3422,0.08707899
934.8243,0.08740272
935.3064,0.08774043
935.7885,0.08809673
936.2706,0.08847606
936.7527,0.08888008
937.2349,0.08930525
937.717,0.0897447
938.1991,0.09019013
938.6812,0.0906359
939.1633,0.09108149
939.6454,0.09153116
940.1276,0.09199122
940.6097,0.09246609
941.0918,0.0929561
941.5739,0.09345721
942.056,0.09396331
942.5381,0.09446957
943.0203,0.09497494
943.5024,0.09548198
943.9845,0.09599487
944.4666,0.0965159
944.9487,0.09704368
945.4308,0.09757332
945.913,0.0980996
946.3951,0.09862005
946.8772,0.09913684
947.3593,0.09965613
947.8414,0.1001849
948.3235,0.1007262
948.8057,0.1012773
949.2878,0.1018293
949.7699,0.1023716
950.252,0.1028968
950.7341,0.1034033
951.2162,0.1038961
951.6984,0.1043829
952.1805,0.10487
952.6626,0.1053579
953.1447,0.1058419
953.6268,0.106314
954.1089,0.1067687
954.5911,0.1072062
955.0732,0.1076334
955.5553,0.1080606
956.0374,0.1084971
956.5195,0.1089476
957.0016,0.1094112
957.4838,0.1098832
957.9659,0.11036
958.448,0.1108411
958.9301,0.1113303
959.4122,0.1118324
959.8943,0.1123492
960.3765,0.1128774
960.8586,0.1134085
961.3407,0.1139331
961.8228,0.1144453
962.3049,0.1149467
962.787,0.1154457
963.2692,0.1159539
963.7513,0.1164793
964.2334,0.1170228
964.7155,0.1175771
965.1976,0.118131
965.6797,0.1186745
966.1619,0.1192038
966.644,0.1197229
967.1261,0.1202403
967.6082,0.1207638
968.0903,0.1212956
968.5724,0.1218314
969.0546,0.1223634
969.5367,0.1228854
970.0188,0.1233971
970.5009,0.1239046
970.983,0.1244166
971.4651,0.1249403
971.9473,0.1254757
972.4294,0.1260154
972.9115,0.1265476
973.3936,0.1270636
973.8757,0.1275611
974.3578,0.1280467
974.84,0.128531
975.3221,0.1290234
975.8042,0.1295256
976.2863,0.1300313
976.7684,0.130528
977.2505,0.1310034
977.7327,0.1314524
978.2148,0.1318778
978.6969,0.1322893
979.179,0.1326969
979.6611,0.1331067
980.1432,0.1335185
980.6254,0.1339269
981.1075,0.1343266
981.5896,0.134716
982.0717,0.1350988
982.5538,0.1354813
983.0359,0.1358683
983.5181,0.1362593
984.0002,0.1366486
984.4823,0.1370286
984.9644,0.1373947
985.4465,0.1377487
985.9286,0.1380984
986.4108,0.1384543
986.8929,0.138823
987.375,0.1392039
987.8571,0.1395894
988.3392,0.1399697
988.8214,0.1403396
989.3035,0.1407023
989.7856,0.1410688
990.2677,0.1414529
990.7498,0.1418641
991.2319,0.1423019
991.7141,0.1427562
992.1962,0.1432113
992.6783,0.1436553
993.1604,0.1440852
993.6425,0.144509
994.1246,0.1449399
994.6068,0.1453906
995.0889,0.1458663
995.571,0.1463627
996.0531,0.14687
996.5352,0.1473791
997.0173,0.1478873
997.4995,0.148399
997.9816,0.148922
998.4637,0.1494608
998.9458,0.1500123
999.4279,0.1505658
999.91,0.1511083
1000.392,0.1516313
1000.874,0.1521372
1001.356,0.152639
1001.839,0.1531547
1002.321,0.1536975
1002.803,0.1542694
1003.285,0.1548591
1003.767,0.1554488
1004.249,0.1560206
1004.731,0.1565657
1005.213,0.1570858
1005.695,0.1575907
1006.178,0.1580895
1006.66,0.158585
1007.142,0.1590714
1007.624,0.1595391
1008.106,0.1599813
1008.588,0.1603994
1009.07,0.1608031
1009.552,0.161205
1010.034,0.1616124
1010.517,0.1620222
1010.999,0.1624213
1011.481,0.1627927
1011.963,0.1631264
1012.445,0.1634246
1012.927,0.1637022
1013.409,0.1639773
1013.891,0.1642627
1014.374,0.1645573
1014.856,0.1648464
1015.338,0.165109
1015.82,0.16533
1016.302,0.1655083
1016.784,0.1656585
1017.266,0.165803
1017.748,0.1659593
1018.23,0.1661329
1018.713,0.1663139
1019.195,0.1664845
1019.677,0.1666291
1020.159,0.1667444
1020.641,0.1668406
1021.123,0.1669365
1021.605,0.1670473
1022.087,0.1671775
1022.57,0.1673184
1023.052,0.1674554
1023.534,0.1675758
1024.016,0.1676781
1024.498,0.1677719
1024.98,0.1678725
1025.462,0.167991
1025.944,0.1681262
1026.427,0.1682642
1026.909,0.1683838
1027.391,0.1684654
1027.873,0.1684944
1028.355,0.1684621
1028.837,0.1683582
1029.319,0.1681643
1029.801,0.1678546
1030.283,0.167404
1030.766,0.1668062
1031.248,0.1660903
1031.73,0.165334
1032.212,0.164658
1032.694,0.1641849
1033.176,0.1640081
1033.658,0.1641449
1034.14,0.1645319
1034.622,0.1650441
1035.104,0.1655458
1035.587,0.1659364
1036.069,0.16616
1036.551,0.1662108
1037.033,0.1661122
1037.515,0.1658983
1037.997,0.1655964
1038.479,0.1652225
1038.961,0.1647857
1039.444,0.1642936
1039.926,0.1637592
1040.408,0.1632
1040.89,0.1626306
1041.372,0.1620581
1041.854,0.1614775
1042.336,0.160877
1042.818,0.1602453
1043.301,0.1595798
1043.783,0.15889
1044.265,0.1581929
1044.747,0.1575036
1045.229,0.1568261
1045.711,0.1561513
1046.193,0.1554612
1046.675,0.1547395
1047.157,0.1539805
1047.64,0.1531938
1048.122,0.1523992
1048.604,0.1516192
1049.086,0.1508662
1049.568,0.1501403
1050.05,0.1494314
1050.532,0.1487288
1051.014,0.148029
1051.497,0.1473405
1051.979,0.1466792
1052.461,0.1460614
1052.943,0.1454934
1053.425,0.144969
1053.907,0.1444707
1054.389,0.1439794
1054.871,0.1434838
1055.354,0.1429843
1055.836,0.1424914
1056.318,0.1420184
1056.8,0.1415743
1057.282,0.141159
1057.764,0.1407654
1058.246,0.1403853
1058.728,0.140016
1059.21,0.1396627
1059.693,0.1393356
1060.175,0.1390432
1060.657,0.1387864
1061.139,0.1385564
1061.621,0.138339
1062.103,0.1381207
1062.585,0.1378962
1063.067,0.1376702
1063.549,0.1374538
1064.031,0.1372568
1064.514,0.137081
1064.996,0.1369185
1065.478,0.1367547
1065.96,0.1365766
1066.442,0.1363783
1066.924,0.1361638
1067.406,0.135943
1067.888,0.1357243
1068.371,0.1355083
1068.853,0.1352858
1069.335,0.1350416
1069.817,0.1347636
1070.299,0.134448
1070.781,0.1341024
1071.263,0.1337405
1071.745,0.1333757
1072.228,0.1330131
1072.71,0.1326479
1073.192,0.1322679
1073.674,0.1318618
1074.156,0.1314257
1074.638,0.1309653
1075.12,0.1304921
1075.602,0.1300165
1076.084,0.1295419
1076.567,0.1290623
1077.049,0.1285662
1077.531,0.1280432
1078.013,0.1274907
1078.495,0.1269154
1078.977,0.12633
1079.459,0.1257461
1079.941,0.1251683
1080.424,0.1245923
1080.906,0.1240086
1081.388,0.1234076
1081.87,0.1227866
1082.352,0.1221515
1082.834,0.1215133
1083.316,0.1208822
1083.798,0.1202621
1084.281,0.119649
1084.763,0.1190344
1085.245,0.1184109
1085.727,0.1177771
1086.209,0.1171395
1086.691,0.116509
1087.173,0.1158962
1087.655,0.1153044
1088.137,0.1147296
1088.62,0.1141622
1089.102,0.1135932
1089.584,0.1130187
1090.066,0.1124411
1090.548,0.1118668
1091.03,0.1113012
1091.512,0.1107443
1091.994,0.1101901
1092.476,0.1096291
1092.958,0.1090544
1093.441,0.1084659
1093.923,0.1078715
1094.405,0.1072836
1094.887,0.1067133
1095.369,0.1061653
1095.851,0.1056366
1096.333,0.1051183
1096.815,0.1046017
1097.298,0.1040823
1097.78,0.1035631
1098.262,0.103052
1098.744,0.102557
1099.226,0.1020822
1099.708,0.1016254
1100.19,0.1011797
1100.672,0.1007372
1101.155,0.1002933
1101.637,0.09984904
1102.119,0.09940963
1102.601,0.09898099
