wavenumber,intensity
600.2353,0.1982742
600.7174,0.1979887
601.1995,0.1977279
601.6816,0.1975062
602.1638,0.1973108
602.6459,0.1971173
603.128,0.1969127
603.6101,0.1967083
604.0922,0.1965378
604.5743,0.1964357
605.0565,0.1964145
605.5386,0.1964494
606.0207,0.1964868
606.5028,0.1964634
606.9849,0.1963362
607.467,0.1961036
607.9492,0.1958031
608.4313,0.1954925
608.9134,0.1952173
609.3955,0.1949953
609.8776,0.1948098
610.3597,0.1946274
610.8419,0.1944194
611.324,0.1941816
611.8061,0.1939359
612.2882,0.1937169
612.7703,0.1935481
613.2524,0.1934273
613.7346,0.1933247
614.2167,0.1931997
614.6988,0.1930212
615.1809,0.1927839
615.663,0.1925104
616.1451,0.1922382
616.6273,0.1919992
617.1094,0.1918015
617.5915,0.1916268
618.0736,0.191441
618.5557,0.1912155
619.0378,0.1909393
619.52,0.1906236
620.0021,0.1902891
620.4842,0.189953
620.9663,0.1896169
621.4484,0.1892698
621.9305,0.1888991
622.4127,0.1885056
622.8948,0.1881095
623.3769,0.1877464
623.859,0.1874476
624.3411,0.1872246
624.8232,0.1870594
625.3054,0.1869131
625.7875,0.1867425
626.2696,0.1865224
626.7517,0.1862579
627.2338,0.1859781
627.7159,0.1857177
628.1981,0.1854941
628.6802,0.1852974
629.1623,0.1850937
629.6444,0.1848454
630.1265,0.1845293
630.6086,0.1841514
631.0908,0.183742
631.5729,0.1833403
632.055,0.1829701
632.5371,0.1826278
633.0192,0.1822841
633.5013,0.1819028
633.9835,0.1814613
634.4656,0.1809664
634.9477,0.1804518
635.4298,0.1799648
635.9119,0.1795432
636.394,0.179198
636.8762,0.1789133
637.3583,0.1786575
637.8404,0.1784046
638.3225,0.1781442
638.8046,0.1778844
639.2867,0.1776395
639.7689,0.1774161
640.251,0.1772022
640.7331,0.1769711
641.2152,0.1766929
641.6973,0.1763535
642.1794,0.1759628
642.6616,0.1755525
643.1437,0.1751586
643.6258,0.1748051
644.1079,0.1744917
644.59,0.1741964
645.0721,0.1738882
645.5543,0.173546
646.0364,0.1731705
646.5185,0.172783
647.0006,0.1724123
647.4827,0.1720768
647.9648,0.1717749
648.447,0.1714848
648.9291,0.1711799
649.4112,0.1708423
649.8933,0.1704767
650.3754,0.1701065
650.8575,0.169763
651.3397,0.1694661
651.8218,0.1692159
652.3039,0.1689931
652.786,0.1687739
653.2681,0.1685442
653.7502,0.1683092
654.2324,0.1680897
654.7145,0.1679085
655.1966,0.1677739
655.6787,0.1676707
656.1608,0.1675639
656.6429,0.1674154
657.1251,0.1672043
657.6072,0.1669363
658.0893,0.1666417
658.5714,0.1663579
659.0535,0.1661131
659.5356,0.1659105
660.0178,0.1657302
660.4999,0.1655407
660.982,0.165319
661.4641,0.1650616
661.9462,0.1647845
662.4283,0.1645108
662.9105,0.1642565
663.3926,0.1640207
663.8747,0.1637878
664.3568,0.1635382
664.8389,0.1632617
665.321,0.162962
665.8032,0.1626578
666.2853,0.1623725
666.7674,0.1621209
667.2495,0.1619009
667.7316,0.1616894
668.2137,0.161469
668.6959,0.1612356
669.178,0.1609882
669.6601,0.1607182
670.1422,0.1604317
670.6243,0.1601452
671.1064,0.1598682
671.5886,0.159595
672.0707,0.1593092
672.5528,0.1589969
673.0349,0.1586574
673.517,0.1583045
673.9991,0.1579605
674.4813,0.1576419
674.9634,0.1573492
675.4455,0.1570664
675.9276,0.1567698
676.4097,0.1564432
676.8918,0.1560865
677.374,0.1557179
677.8561,0.1553637
678.3382,0.1550462
678.8203,0.1547727
679.3024,0.1545342
679.7845,0.1543127
680.2667,0.154093
680.7488,0.1538706
681.2309,0.1536527
681.713,0.1534512
682.1951,0.1532733
682.6772,0.1531147
683.1594,0.1529623
683.6415,0.1528008
684.1236,0.1526235
684.6057,0.1524368
685.0878,0.1522581
685.5699,0.1521043
686.0521,0.1519807
686.5342,0.151875
687.0163,0.1517615
687.4984,0.151613
687.9805,0.1514124
688.4626,0.1511631
688.9448,0.1508856
689.4269,0.1506082
689.909,0.1503507
690.3911,0.1501167
690.8732,0.1498942
691.3553,0.1496655
691.8375,0.1494184
692.3196,0.1491548
692.8017,0.1488886
693.2838,0.1486386
693.7659,0.1484164
694.248,0.14822
694.7302,0.1480356
695.2123,0.1478459
695.6944,0.1476415
696.1765,0.1474258
696.6586,0.147213
697.1407,0.1470178
697.6229,0.1468453
698.105,0.1466848
698.5871,0.1465141
699.0692,0.1463086
699.5513,0.1460561
700.0334,0.1457628
700.5156,0.1454521
700.9977,0.1451513
701.4798,0.1448812
701.9619,0.1446462
702.444,0.144435
702.9261,0.1442287
703.4083,0.1440125
703.8904,0.1437836
704.3725,0.1435513
704.8546,0.1433295
705.3367,0.1431265
705.8188,0.142939
706.301,0.1427537
706.7831,0.1425554
707.2652,0.142336
707.7473,0.1421007
708.2294,0.1418651
708.7115,0.1416461
709.1937,0.1414503
709.6758,0.1412685
710.1579,0.1410775
710.64,0.1408526
711.1221,0.1405785
711.6042,0.1402586
712.0864,0.1399131
712.5685,0.1395716
713.0506,0.1392585
713.5327,0.1389831
714.0148,0.1387382
714.4969,0.138506
714.9791,0.1382689
715.4612,0.1380164
715.9433,0.1377485
716.4254,0.1374707
716.9075,0.1371871
717.3896,0.1368948
717.8718,0.1365845
718.3539,0.1362467
718.836,0.1358798
719.3181,0.1354948
719.8002,0.1351131
720.2823,0.1347565
720.7645,0.1344373
721.2466,0.1341506
721.7287,0.133878
722.2108,0.1335944
722.6929,0.1332803
723.175,0.1329293
723.6572,0.1325474
724.1393,0.1321485
724.6214,0.1317453
725.1035,0.1313454
725.5856,0.1309502
726.0677,0.1305588
726.5499,0.1301735
727.032,0.1298015
727.5141,0.1294527
727.9962,0.1291336
728.4783,0.1288415
728.9604,0.1285633
729.4426,0.1282797
729.9247,0.1279754
730.4068,0.1276462
730.8889,0.1273024
731.371,0.1269633
731.8531,0.126649
732.3353,0.12637
732.8174,0.1261221
733.2995,0.1258894
733.7816,0.1256538
734.2637,0.1254049
734.7458,0.1251444
735.228,0.1248851
735.7101,0.1246419
736.1922,0.1244235
736.6743,0.1242259
737.1564,0.1240349
737.6385,0.1238329
738.1207,0.1236101
738.6028,0.1233694
739.0849,0.1231256
739.567,0.1228964
740.0491,0.1226948
740.5313,0.1225215
741.0134,0.1223656
741.4955,0.1222108
741.9776,0.1220444
742.4597,0.121864
742.9418,0.1216772
743.424,0.1214963
743.9061,0.1213298
744.3882,0.1211782
744.8703,0.1210342
745.3524,0.1208882
745.8345,0.1207355
746.3167,0.1205807
746.7988,0.1204361
747.2809,0.1203154
747.763,0.1202246
748.2451,0.1201584
748.7272,0.1201002
749.2094,0.1200309
749.6915,0.1199362
750.1736,0.1198137
750.6557,0.1196725
751.1378,0.1195281
751.6199,0.1193937
752.1021,0.1192737
752.5842,0.119164
753.0663,0.1190562
753.5484,0.1189443
754.0305,0.1188291
754.5126,0.1187178
754.9948,0.1186189
755.4769,0.1185366
755.959,0.118466
756.4411,0.1183956
756.9232,0.1183123
757.4053,0.1182098
757.8875,0.1180912
758.3696,0.1179688
758.8517,0.1178553
759.3338,0.117758
759.8159,0.117673
760.298,0.1175871
760.7802,0.1174869
761.2623,0.1173645
761.7444,0.1172234
762.2265,0.117077
762.7086,0.1169418
763.1907,0.1168279
763.6729,0.1167338
764.155,0.1166464
764.6371,0.1165474
765.1192,0.116422
765.6013,0.116267
766.0834,0.116092
766.5656,0.1159149
767.0477,0.1157527
767.5298,0.1156149
768.0119,0.1155007
768.494,0.1154016
768.9761,0.1153063
769.4583,0.1152071
769.9404,0.1151017
770.4225,0.1149918
770.9046,0.1148781
771.3867,0.1147583
771.8688,0.1146261
772.351,0.1144753
772.8331,0.1143045
773.3152,0.1141195
773.7973,0.1139321
774.2794,0.1137547
774.7615,0.1135951
775.2437,0.1134517
775.7258,0.1133151
776.2079,0.1131726
776.69,0.1130155
777.1721,0.1128429
777.6542,0.112663
778.1364,0.1124863
778.6185,0.112321
779.1006,0.1121674
779.5827,0.1120178
780.0648,0.1118606
780.5469,0.1116874
781.0291,0.1114981
781.5112,0.1113017
781.9933,0.1111125
782.4754,0.1109431
782.9575,0.1107998
783.4396,0.1106796
783.9218,0.110572
784.4039,0.1104632
784.886,0.1103416
785.3681,0.1101991
785.8502,0.1100311
786.3323,0.1098354
786.8145,0.1096102
787.2966,0.1093563
787.7787,0.1090782
788.2608,0.1087877
788.7429,0.1085026
789.225,0.1082415
789.7072,0.1080192
790.1893,0.1078397
790.6714,0.1076952
791.1535,0.1075683
791.6356,0.1074408
792.1177,0.1073012
792.5999,0.1071487
793.082,0.1069928
793.5641,0.1068473
794.0462,0.1067229
794.5283,0.1066213
795.0104,0.106535
795.4926,0.1064516
795.9747,0.1063616
796.4568,0.1062625
796.9389,0.1061611
797.421,0.106068
797.9031,0.1059932
798.3853,0.1059395
798.8674,0.1059021
799.3495,0.105871
799.8316,0.1058368
800.3137,0.1057953
800.7958,0.1057484
801.278,0.1057011
801.7601,0.1056562
802.2422,0.1056108
802.7243,0.1055558
803.2064,0.1054797
803.6885,0.1053735
804.1707,0.1052363
804.6528,0.1050753
805.1349,0.1049033
805.617,0.1047321
806.0991,0.1045696
806.5812,0.1044174
807.0634,0.1042732
807.5455,0.1041348
808.0276,0.1040031
808.5097,0.1038823
808.9918,0.1037769
809.4739,0.1036876
809.9561,0.103609
810.4382,0.1035286
810.9203,0.1034322
811.4024,0.1033083
811.8845,0.1031519
812.3666,0.1029658
812.8488,0.1027578
813.3309,0.1025366
813.813,0.1023072
814.2951,0.1020703
814.7772,0.1018238
815.2593,0.1015665
815.7415,0.1013001
816.2236,0.1010306
816.7057,0.1007652
817.1878,0.1005103
817.6699,0.1002686
818.152,0.100039
818.6342,0.09981731
819.1163,0.09959918
819.5984,0.09938131
820.0805,0.09916107
820.5626,0.09893535
821.0447,0.09869956
821.5269,0.09844723
822.009,0.09817297
822.4911,0.09787527
822.9732,0.09755926
823.4553,0.09723575
823.9374,0.09691882
824.4196,0.09662068
824.9017,0.0963466
825.3838,0.09609404
825.8659,0.0958543
826.348,0.09561753
826.8301,0.0953766
827.3123,0.09513066
827.7944,0.09488422
828.2765,0.09464455
828.7586,0.0944175
829.2407,0.09420513
829.7228,0.09400602
830.205,0.09381726
830.6871,0.09363715
831.1692,0.09346626
831.6513,0.09330656
832.1334,0.09315892
832.6155,0.09302042
833.0977,0.09288404
833.5798,0.09273968
834.0619,0.09257776
834.544,0.09239325
835.0261,0.09218658
835.5082,0.09196316
835.9904,0.09172946
836.4725,0.09149045
836.9546,0.09124739
837.4367,0.09099892
837.9188,0.09074382
838.4009,0.09048416
838.8831,0.09022623
839.3652,0.08997993
839.8473,0.08975458
840.3294,0.08955575
840.8115,0.08938302
841.2936,0.08923064
841.7758,0.08908984
842.2579,0.08895192
842.74,0.08881129
843.2221,0.08866536
843.7042,0.0885136
844.1863,0.08835597
844.6685,0.08819209
845.1506,0.08802192
845.6327,0.08784705
846.1148,0.08767217
846.5969,0.0875045
847.079,0.0873512
847.5612,0.08721703
848.0433,0.08710146
848.5254,0.08699887
849.0075,0.08690034
849.4896,0.08679814
849.9717,0.08668885
850.4539,0.08657469
850.936,0.08646191
851.4181,0.08635753
851.9002,0.08626562
852.3823,0.08618512
852.8644,0.08611051
853.3466,0.08603466
853.8287,0.08595279
854.3108,0.08586444
854.7929,0.08577409
855.275,0.08568852
855.7571,0.08561453
856.2393,0.08555585
856.7214,0.08551234
857.2035,0.08548068
857.6856,0.08545623
858.1677,0.08543466
858.6498,0.08541264
859.132,0.08538839
859.6141,0.08536143
860.0962,0.08533298
860.5783,0.08530647
861.0604,0.08528838
861.5425,0.08528798
862.0247,0.08531465
862.5068,0.08537558
862.9889,0.08547213
863.471,0.08559846
863.9531,0.08574177
864.4352,0.08588586
864.9174,0.0860166
865.3995,0.08612467
865.8816,0.08620868
866.3637,0.08627369
866.8458,0.08632857
867.3279,0.08638164
867.8101,0.08643802
868.2922,0.08649938
868.7743,0.08656477
869.2564,0.08663267
869.7385,0.08670218
870.2206,0.08677327
870.7028,0.08684579
871.1849,0.08691851
871.667,0.08698937
872.1491,0.08705645
872.6312,0.08711985
873.1133,0.08718259
873.5955,0.0872502
874.0776,0.0873283
874.5597,0.08741928
875.0418,0.08752064
875.5239,0.08762507
876.006,0.08772355
876.4882,0.08780856
876.9703,0.08787832
877.4524,0.0879373
877.9345,0.08799486
878.4166,0.08806052
878.8987,0.08814061
879.3809,0.08823609
879.863,0.08834355
880.3451,0.08845814
880.8272,0.08857718
881.3093,0.08870227
881.7914,0.088839
882.2736,0.08899447
882.7557,0.08917365
883.2378,0.08937788
883.7199,0.08960455
884.202,0.08984905
884.6841,0.09010691
885.1663,0.0903753
885.6484,0.09065264
886.1305,0.0909366
886.6126,0.09122251
887.0947,0.09150305
887.5768,0.09176949
888.059,0.09201574
888.5411,0.09224097
889.0232,0.09245089
889.5053,0.09265538
889.9874,0.09286509
890.4695,0.09308677
890.9517,0.09332064
891.4338,0.093561
891.9159,0.09379941
892.398,0.09402914
892.8801,0.09424717
893.3622,0.09445464
893.8444,0.09465398
894.3265,0.09484591
894.8086,0.09502707
895.2907,0.09519094
895.7728,0.0953301
896.2549,0.09544047
896.7371,0.0955232
897.2192,0.09558418
897.7013,0.09563043
898.1834,0.09566651
898.6655,0.09569193
899.1476,0.09570191
899.6298,0.09569033
900.1119,0.09565409
900.594,0.09559573
901.0761,0.09552359
901.5582,0.09544849
902.0403,0.09537894
902.5225,0.09531886
903.0046,0.0952665
903.4867,0.09521721
903.9688,0.09516663
904.4509,0.095114
904.933,0.09506255
905.4152,0.09501793
905.8973,0.09498474
906.3794,0.09496428
906.8615,0.09495401
907.3436,0.09494933
907.8257,0.09494598
908.3079,0.09494216
908.79,0.09493885
909.2721,0.09493843
909.7542,0.09494257
910.2363,0.09495094
910.7184,0.09496175
911.2006,0.09497353
911.6827,0.09498715
912.1648,0.09500654
912.6469,0.09503728
913.129,0.09508345
913.6111,0.09514531
914.0933,0.09521811
914.5754,0.09529398
915.0575,0.09536496
915.5396,0.09542726
916.0217,0.09548265
916.5038,0.09553756
916.986,0.0955989
917.4681,0.09567055
917.9502,0.09575067
918.4323,0.09583301
918.9144,0.0959098
919.3965,0.09597648
919.8787,0.09603436
920.3608,0.09609054
920.8429,0.09615447
921.325,0.09623299
921.8071,0.09632771
922.2892,0.09643416
922.7714,0.09654478
923.2535,0.09665263
923.7356,0.09675542
924.2177,0.09685616
924.6998,0.09696167
925.1819,0.09707849
925.6641,0.09721015
926.1462,0.09735604
926.6283,0.09751295
927.1104,0.09767783
927.5925,0.0978502
928.0746,0.09803275
928.5568,0.09822972
929.0389,0.09844404
929.521,0.09867521
930.0031,0.09891908
930.4852,0.09917014
930.9673,0.09942491
931.4495,0.09968414
931.9316,0.09995341
932.4137,0.1002403
932.8958,0.1005518
933.3779,0.1008909
933.86,0.101256
934.3422,0.101642
934.8243,0.1020444
935.3064,0.1024609
935.7885,0.1028928
936.2706,0.1033431
936.7527,0.1038142
937.2349,0.1043054
937.717,0.1048135
938.1991,0.1053335
938.6812,0.1058625
939.1633,0.1064009
939.6454,0.1069523
940.1276,0.1075211
940.6097,0.1081085
941.0918,0.1087108
941.5739,0.1093199
942.056,0.1099263
942.5381,0.1105245
943.0203,0.1111161
943.5024,0.1117097
943.9845,0.1123184
944.4666,0.1129532
944.9487,0.1136192
945.4308,0.1143133
945.913,0.115027
946.3951,0.1157501
946.8772,0.1164745
947.3593,0.1171978
947.8414,0.1179216
948.3235,0.1186479
948.8057,0.1193767
949.2878,0.1201049
949.7699,0.120828
950.252,0.1215437
950.7341,0.1222542
951.2162,0.1229665
951.6984,0.1236877
952.1805,0.1244227
952.6626,0.1251693
953.1447,0.1259193
953.6268,0.1266614
954.1089,0.1273882
954.5911,0.1280993
955.0732,0.1288026
955.5553,0.1295092
956.0374,0.1302289
956.5195,0.1309637
957.0016,0.1317081
957.4838,0.1324517
957.9659,0.1331854
958.448,0.1339072
958.9301,0.1346235
959.4122,0.1353454
959.8943,0.1360826
960.3765,0.1368384
960.8586,0.1376078
961.3407,0.1383803
961.8228,0.139147
962.3049,0.1399055
962.787,0.140662
963.2692,0.1414284
963.7513,0.1422149
964.2334,0.1430248
964.7155,0.1438517
965.1976,0.1446833
965.6797,0.1455069
966.1619,0.1463154
966.644,0.1471111
967.1261,0.1479023
967.6082,0.1486975
968.0903,0.1494998
968.5724,0.1503047
969.0546,0.1511029
969.5367,0.1518859
970.0188,0.1526515
970.5009,0.1534058
970.983,0.1541588
971.4651,0.1549206
971.9473,0.1556942
972.4294,0.1564752
972.9115,0.1572547
973.3936,0.1580264
973.8757,0.158791
974.3578,0.1595572
974.84,0.1603363
975.3221,0.1611355
975.8042,0.1619518
976.2863,0.1627726
976.7684,0.1635801
977.2505,0.1643612
977.7327,0.1651144
978.2148,0.1658514
978.6969,0.1665913
979.179,0.1673499
979.6611,0.1681327
980.1432,0.1689312
980.6254,0.1697274
981.1075,0.1705027
981.5896,0.1712471
982.0717,0.1719628
982.5538,0.1726604
983.0359,0.1733508
983.5181,0.174038
984.0002,0.1747161
984.4823,0.1753744
984.9644,0.176005
985.4465,0.1766103
985.9286,0.1772047
986.4108,0.1778102
986.8929,0.1784457
987.375,0.1791178
987.8571,0.1798192
988.3392,0.1805323
988.8214,0.1812403
989.3035,0.181935
989.7856,0.1826214
990.2677,0.1833137
990.7498,0.1840259
991.2319,0.1847632
991.7141,0.1855184
992.1962,0.1862751
992.6783,0.1870184
993.1604,0.1877417
993.6425,0.188452
994.1246,0.1891637
994.6068,0.1898918
995.0889,0.1906418
995.571,0.1914071
996.0531,0.1921729
996.5352,0.1929249
997.0173,0.1936588
997.4995,0.1943823
997.9816,0.1951103
998.4637,0.1958554
998.9458,0.1966194
999.4279,0.1973906
999.91,0.1981499
1000.392,0.1988793
1000.874,0.1995738
1001.356,0.2002427
1001.839,0.2009057
1002.321,0.2015802
1002.803,0.2022726
1003.285,0.2029743
1003.767,0.2036677
1004.249,0.2043356
1004.731,0.2049718
1005.213,0.2055844
1005.695,0.2061911
1006.178,0.2068079
1006.66,0.2074385
1007.142,0.2080721
1007.624,0.2086881
1008.106,0.2092686
1008.588,0.2098072
1009.07,0.2103135
1009.552,0.2108062
1010.034,0.2113028
1010.517,0.211808
1010.999,0.2123108
1011.481,0.2127899
1011.963,0.2132266
1012.445,0.213615
1012.927,0.2139654
1013.409,0.2142969
1013.891,0.2146266
1014.374,0.2149576
1014.856,0.2152764
1015.338,0.2155593
1015.82,0.2157861
1016.302,0.2159518
1016.784,0.2160698
1017.266,0.2161647
1017.748,0.216258
1018.23,0.2163569
1018.713,0.2164499
1019.195,0.2165136
1019.677,0.2165257
1020.159,0.2164785
1020.641,0.216383
1021.123,0.2162632
1021.605,0.2161414
1022.087,0.2160281
1022.57,0.2159167
1023.052,0.2157907
1023.534,0.2156342
1024.016,0.2154451
1024.498,0.2152369
1024.98,0.2150332
1025.462,0.2148547
1025.944,0.2147071
1026.427,0.2145784
1026.909,0.2144465
1027.391,0.2142924
1027.873,0.2141114
1028.355,0.2139177
1028.837,0.2137365
1029.319,0.2135922
1029.801,0.2134932
1030.283,0.2134273
1030.766,0.2133642
1031.248,0.21327
1031.73,0.2131154
1032.212,0.2128842
1032.694,0.2125721
1033.176,0.2121791
1033.658,0.2117041
1034.14,0.2111439
1034.622,0.2104987
1035.104,0.2097799
1035.587,0.209013
1036.069,0.2082359
1036.551,0.2074844
1037.033,0.2067796
1037.515,0.2061207
1037.997,0.2054864
1038.479,0.2048464
1038.961,0.2041764
1039.444,0.2034705
1039.926,0.2027418
1040.408,0.2020145
1040.89,0.2013071
1041.372,0.200623
1041.854,0.1999477
1042.336,0.1992585
1042.818,0.1985355
1043.301,0.1977747
1043.783,0.1969892
1044.265,0.1962015
1044.747,0.1954299
1045.229,0.1946779
1045.711,0.1939317
1046.193,0.1931689
1046.675,0.1923714
1047.157,0.1915353
1047.64,0.1906744
1048.122,0.1898121
1048.604,0.1889712
1049.086,0.1881606
1049.568,0.1873741
1050.05,0.1865955
1050.532,0.1858109
1051.014,0.1850158
1051.497,0.1842186
1051.979,0.1834327
1052.461,0.182668
1052.943,0.1819217
1053.425,0.1811798
1053.907,0.1804228
1054.389,0.1796388
1054.871,0.1788312
1055.354,0.1780196
1055.836,0.17723
1056.318,0.1764822
1056.8,0.1757809
1057.282,0.1751132
1057.764,0.1744565
1058.246,0.1737904
1058.728,0.1731074
1059.21,0.1724156
1059.693,0.1717332
1060.175,0.1710768
1060.657,0.170453
1061.139,0.1698555
1061.621,0.1692714
1062.103,0.1686899
1062.585,0.1681109
1063.067,0.1675465
1063.549,0.1670151
1064.031,0.1665311
1064.514,0.1660961
1064.996,0.1656977
1065.478,0.1653156
1065.96,0.1649316
1066.442,0.1645375
1066.924,0.1641377
1067.406,0.1637433
1067.888,0.1633636
1068.371,0.1629968
1068.853,0.1626299
1069.335,0.1622436
1069.817,0.1618234
1070.299,0.161367
1070.781,0.160886
1071.263,0.160399
1071.745,0.1599226
1072.228,0.1594615
1072.71,0.1590072
1073.192,0.158542
1073.674,0.1580493
1074.156,0.1575225
1074.638,0.156966
1075.12,0.1563915
1075.602,0.155809
1076.084,0.1552196
1076.567,0.1546143
1077.049,0.1539788
1077.531,0.1533017
1078.013,0.1525816
1078.495,0.1518278
1078.977,0.1510554
1079.459,0.150276
1079.941,0.1494928
1080.424,0.1486989
1080.906,0.1478845
1081.388,0.1470432
1081.87,0.1461795
1082.352,0.1453071
1082.834,0.1444435
1083.316,0.1436004
1083.798,0.1427777
1084.281,0.1419639
1084.763,0.1411425
1085.245,0.1403019
1085.727,0.1394418
1086.209,0.138574
1086.691,0.1377161
1087.173,0.1368838
1087.655,0.1360817
1088.137,0.1353031
1088.62,0.1345343
1089.102,0.1337639
1089.584,0.1329881
1090.066,0.1322137
1090.548,0.1314522
1091.03,0.130714
1091.512,0.1300013
1091.994,0.1293077
1092.476,0.1286209
1092.958,0.1279307
1093.441,0.1272344
1093.923,0.1265376
1094.405,0.1258503
1094.887,0.1251804
1095.369,0.1245289
1095.851,0.1238893
1096.333,0.1232516
1096.815,0.1226094
1097.298,0.1219643
1097.78,0.1213264
1098.262,0.1207101
1098.744,0.1201251
1099.226,0.1195729
1099.708,0.1190443
1100.19,0.1185252
1100.672,0.1180019
1101.155,0.1174686
1101.637,0.1169292
1102.119,0.1163943
1102.601,0.1158753
1103.083,0.1153776
1103.565,0.1148994
1104.047,0.114433
1104.529,0.1139696
1105.011,0.1135032
1105.494,0.1130335
1105.976,0.112564
