wavenumber,intensity
600.2353,0.06611601
600.7174,0.06604712
601.1995,0.06596039
601.6816,0.06585939
602.1638,0.06574154
602.6459,0.06560232
603.128,0.065442
603.6101,0.06526902
604.0922,0.06509954
604.5743,0.0649501
605.0565,0.06483073
605.5386,0.06474039
606.0207,0.06466842
606.5028,0.06460024
606.9849,0.06452532
607.467,0.06444262
607.9492,0.06435975
608.4313,0.06428772
608.9134,0.06423305
609.3955,0.06419366
609.8776,0.06415866
610.3597,0.06411442
610.8419,0.06404994
611.324,0.06396275
611.8061,0.06385846
612.2882,0.06374695
612.7703,0.06363603
613.2524,0.0635277
613.7346,0.0634186
614.2167,0.06330384
614.6988,0.0631817
615.1809,0.06305642
615.663,0.06293628
616.1451,0.06282945
616.6273,0.06273846
617.1094,0.06265858
617.5915,0.06257921
618.0736,0.0624901
618.5557,0.06238757
619.0378,0.062277
619.52,0.06217049
620.0021,0.06207926
620.4842,0.06200812
620.9663,0.06195118
621.4484,0.06189538
621.9305,0.06182652
622.4127,0.06173833
622.8948,0.06163583
623.3769,0.06153365
623.859,0.06144759
624.3411,0.06138644
624.8232,0.06134582
625.3054,0.06130974
625.7875,0.06125665
626.2696,0.06116974
626.7517,0.06104511
627.2338,0.06089234
627.7159,0.06072977
628.1981,0.06057469
628.6802,0.06043821
629.1623,0.06032131
629.6444,0.06021816
630.1265,0.06012129
630.6086,0.06002728
631.0908,0.0599383
631.5729,0.05985981
632.055,0.0597954
632.5371,0.05974268
633.0192,0.05969168
633.5013,0.05962867
633.9835,0.05954069
634.4656,0.05942082
634.9477,0.0592708
635.4298,0.05909963
635.9119,0.05892009
636.394,0.05874361
636.8762,0.05857933
637.3583,0.05843338
637.8404,0.0583098
638.3225,0.05821173
638.8046,0.0581401
639.2867,0.05809195
639.7689,0.05805837
640.251,0.05802553
640.7331,0.05797848
641.2152,0.05790512
641.6973,0.0578019
642.1794,0.05767459
642.6616,0.05753621
643.1437,0.05740047
643.6258,0.05727679
644.1079,0.05716654
644.59,0.05706359
645.0721,0.05695798
645.5543,0.0568413
646.0364,0.05671097
646.5185,0.05657079
647.0006,0.05642929
647.4827,0.05629569
647.9648,0.05617786
648.447,0.05608008
648.9291,0.05600319
649.4112,0.05594482
649.8933,0.05589976
650.3754,0.05585969
650.8575,0.05581232
651.3397,0.05574365
651.8218,0.05564095
652.3039,0.05549749
652.786,0.055317
653.2681,0.05511447
653.7502,0.05491298
654.2324,0.05473424
654.7145,0.05459247
655.1966,0.05448801
655.6787,0.05440833
656.1608,0.05433282
656.6429,0.05424217
657.1251,0.05412675
657.6072,0.05398855
658.0893,0.05383946
658.5714,0.05369429
659.0535,0.05356574
659.5356,0.05345928
660.0178,0.05337392
660.4999,0.05330512
660.982,0.05324838
661.4641,0.05320003
661.9462,0.05315504
662.4283,0.05310511
662.9105,0.05303744
663.3926,0.05293784
663.8747,0.05279805
664.3568,0.05261983
664.8389,0.05241713
665.321,0.05220948
665.8032,0.0520191
666.2853,0.05186184
666.7674,0.0517398
667.2495,0.05164061
667.7316,0.05154023
668.2137,0.05142326
668.6959,0.05128785
669.178,0.05113601
669.6601,0.0509661
670.1422,0.0507878
670.6243,0.05061929
671.1064,0.05047386
671.5886,0.05035308
672.0707,0.05024803
672.5528,0.05014678
673.0349,0.05004154
673.517,0.04993254
673.9991,0.04982737
674.4813,0.04973569
674.9634,0.04966278
675.4455,0.04960611
675.9276,0.04955556
676.4097,0.04949828
676.8918,0.04942255
677.374,0.04932262
677.8561,0.04919903
678.3382,0.04905663
678.8203,0.04890152
679.3024,0.04873941
679.7845,0.04857641
680.2667,0.04841928
680.7488,0.04827631
681.2309,0.04815596
681.713,0.04806323
682.1951,0.04799708
682.6772,0.04794879
683.1594,0.04790483
683.6415,0.04784992
684.1236,0.04777298
684.6057,0.04767133
685.0878,0.0475506
685.5699,0.04742181
686.0521,0.04729559
686.5342,0.04717882
687.0163,0.0470724
687.4984,0.04697294
687.9805,0.0468761
688.4626,0.04678002
688.9448,0.04668649
689.4269,0.04659974
689.909,0.04652335
690.3911,0.04645773
690.8732,0.04639909
691.3553,0.04634119
691.8375,0.04627759
692.3196,0.04620441
692.8017,0.04612146
693.2838,0.04603124
693.7659,0.04593686
694.248,0.04583996
694.7302,0.04574025
695.2123,0.04563638
695.6944,0.04552781
696.1765,0.0454162
696.6586,0.04530553
697.1407,0.04520046
697.6229,0.04510479
698.105,0.04501965
698.5871,0.04494353
699.0692,0.04487337
699.5513,0.0448063
700.0334,0.04474068
700.5156,0.04467601
700.9977,0.04461203
701.4798,0.04454733
701.9619,0.04447877
702.444,0.04440249
702.9261,0.0443152
703.4083,0.04421609
703.8904,0.04410729
704.3725,0.04399318
704.8546,0.04387819
705.3367,0.04376484
705.8188,0.04365322
706.301,0.0435419
706.7831,0.04343003
707.2652,0.04331934
707.7473,0.04321462
708.2294,0.04312248
708.7115,0.0430492
709.1937,0.04299759
709.6758,0.04296604
710.1579,0.04294864
710.64,0.04293751
711.1221,0.04292435
711.6042,0.0429023
712.0864,0.04286696
712.5685,0.04281535
713.0506,0.04274568
713.5327,0.0426573
714.0148,0.04255149
714.4969,0.04243242
714.9791,0.042307
715.4612,0.04218417
715.9433,0.04207148
716.4254,0.0419722
716.9075,0.04188406
717.3896,0.0418
717.8718,0.04171132
718.3539,0.04161145
718.836,0.0414998
719.3181,0.04138221
719.8002,0.04126878
720.2823,0.04116871
720.7645,0.0410863
721.2466,0.0410187
721.7287,0.04095782
722.2108,0.04089391
722.6929,0.04081973
723.175,0.04073258
723.6572,0.04063345
724.1393,0.04052472
724.6214,0.04040754
725.1035,0.0402807
725.5856,0.04014171
726.0677,0.03998917
726.5499,0.03982526
727.032,0.03965624
727.5141,0.03949099
727.9962,0.03933821
728.4783,0.03920244
728.9604,0.03908318
729.4426,0.03897543
729.9247,0.03887304
730.4068,0.03877136
730.8889,0.03866944
731.371,0.03856957
731.8531,0.0384751
732.3353,0.03838744
732.8174,0.03830459
733.2995,0.03822113
733.7816,0.03813066
734.2637,0.03802862
734.7458,0.03791382
735.228,0.03778869
735.7101,0.03765734
736.1922,0.03752346
736.6743,0.0373886
737.1564,0.03725247
737.6385,0.03711465
738.1207,0.03697636
738.6028,0.03684165
739.0849,0.03671631
739.567,0.03660509
740.0491,0.03650922
740.5313,0.03642433
741.0134,0.0363417
741.4955,0.03624997
741.9776,0.03613951
742.4597,0.03600601
742.9418,0.03585149
743.424,0.0356837
743.9061,0.0355132
744.3882,0.03535114
744.8703,0.03520593
745.3524,0.03508236
745.8345,0.03498174
746.3167,0.03490239
746.7988,0.03484063
747.2809,0.03479145
747.763,0.03474984
748.2451,0.03471104
748.7272,0.03467151
749.2094,0.03462964
749.6915,0.03458588
750.1736,0.03454236
750.6557,0.03450177
751.1378,0.03446643
751.6199,0.03443742
752.1021,0.03441464
752.5842,0.03439733
753.0663,0.03438478
753.5484,0.03437659
754.0305,0.03437205
754.5126,0.0343693
754.9948,0.03436472
755.4769,0.03435277
755.959,0.03432804
756.4411,0.03428709
756.9232,0.03423067
757.4053,0.0341641
757.8875,0.03409623
758.3696,0.03403636
758.8517,0.03399012
759.3338,0.03395782
759.8159,0.03393399
760.298,0.03390924
760.7802,0.03387626
761.2623,0.03383022
761.7444,0.03377066
762.2265,0.03370057
762.7086,0.0336241
763.1907,0.03354428
763.6729,0.03346204
764.155,0.03337681
764.6371,0.03328829
765.1192,0.03319852
765.6013,0.0331123
766.0834,0.03303646
766.5656,0.03297773
767.0477,0.03293988
767.5298,0.03292273
768.0119,0.03292216
768.494,0.03293221
768.9761,0.03294675
769.4583,0.03296155
769.9404,0.03297495
770.4225,0.03298679
770.9046,0.03299719
771.3867,0.03300534
771.8688,0.03300914
772.351,0.03300593
772.8331,0.03299364
773.3152,0.03297151
773.7973,0.03294025
774.2794,0.03290134
774.7615,0.03285603
775.2437,0.03280478
775.7258,0.0327474
776.2079,0.03268389
776.69,0.03261527
777.1721,0.03254398
777.6542,0.03247356
778.1364,0.03240712
778.6185,0.03234657
779.1006,0.0322918
779.5827,0.03224112
780.0648,0.03219215
780.5469,0.03214291
781.0291,0.03209252
781.5112,0.03204082
781.9933,0.03198767
782.4754,0.03193224
782.9575,0.03187268
783.4396,0.03180693
783.9218,0.03173387
784.4039,0.03165434
784.886,0.03157129
785.3681,0.0314891
785.8502,0.03141216
786.3323,0.03134307
786.8145,0.03128228
787.2966,0.03122841
787.7787,0.03117952
788.2608,0.03113433
788.7429,0.03109294
789.225,0.03105646
789.7072,0.0310259
790.1893,0.03100083
790.6714,0.03097895
791.1535,0.03095629
791.6356,0.03092888
792.1177,0.03089443
792.5999,0.03085331
793.082,0.03080852
793.5641,0.03076462
794.0462,0.03072616
794.5283,0.03069592
795.0104,0.03067458
795.4926,0.03066095
795.9747,0.03065292
796.4568,0.03064812
796.9389,0.03064429
797.421,0.03063922
797.9031,0.03062994
798.3853,0.03061282
798.8674,0.03058429
799.3495,0.03054168
799.8316,0.03048482
800.3137,0.0304165
800.7958,0.03034249
801.278,0.03026951
801.7601,0.03020335
802.2422,0.03014744
802.7243,0.03010168
803.2064,0.03006304
803.6885,0.03002659
804.1707,0.02998764
804.6528,0.02994278
805.1349,0.02989072
805.617,0.02983232
806.0991,0.02976999
806.5812,0.02970692
807.0634,0.02964601
807.5455,0.02958963
808.0276,0.02953893
808.5097,0.02949367
808.9918,0.02945222
809.4739,0.02941197
809.9561,0.02936999
810.4382,0.02932338
810.9203,0.02927012
811.4024,0.02920926
811.8845,0.02914077
812.3666,0.02906542
812.8488,0.02898455
813.3309,0.02890022
813.813,0.02881528
814.2951,0.0287337
814.7772,0.02866039
815.2593,0.02859972
815.7415,0.02855452
816.2236,0.02852422
816.7057,0.02850454
817.1878,0.02848754
817.6699,0.02846384
818.152,0.0284256
818.6342,0.028368
819.1163,0.02829101
819.5984,0.02819854
820.0805,0.02809686
820.5626,0.02799159
821.0447,0.02788605
821.5269,0.02778091
822.009,0.02767516
822.4911,0.02756806
822.9732,0.02746085
823.4553,0.02735709
823.9374,0.02726189
824.4196,0.02717994
824.9017,0.02711325
825.3838,0.02706028
825.8659,0.027016
826.348,0.02697387
826.8301,0.02692714
827.3123,0.02687109
827.7944,0.02680387
828.2765,0.02672593
828.7586,0.02663914
829.2407,0.0265455
829.7228,0.0264467
830.205,0.02634388
830.6871,0.02623831
831.1692,0.02613186
831.6513,0.02602715
832.1334,0.0259273
832.6155,0.02583535
833.0977,0.02575323
833.5798,0.02568142
834.0619,0.02561869
834.544,0.02556264
835.0261,0.02551014
835.5082,0.02545825
835.9904,0.02540506
836.4725,0.02534985
836.9546,0.02529326
837.4367,0.02523686
837.9188,0.02518275
838.4009,0.02513276
838.8831,0.02508795
839.3652,0.02504836
839.8473,0.02501304
840.3294,0.02498043
840.8115,0.0249486
841.2936,0.02491581
841.7758,0.02488046
842.2579,0.02484091
842.74,0.02479565
843.2221,0.02474314
843.7042,0.02468232
844.1863,0.02461324
844.6685,0.02453766
845.1506,0.02445931
845.6327,0.02438301
846.1148,0.02431408
846.5969,0.02425641
847.079,0.02421134
847.5612,0.02417728
848.0433,0.02415042
848.5254,0.02412617
849.0075,0.02410045
849.4896,0.02407111
849.9717,0.02403804
850.4539,0.02400246
850.936,0.02396582
851.4181,0.02392879
851.9002,0.02389096
852.3823,0.02385124
852.8644,0.02380871
853.3466,0.02376356
853.8287,0.02371727
854.3108,0.02367238
854.7929,0.02363153
855.275,0.02359635
855.7571,0.02356719
856.2393,0.02354311
856.7214,0.02352261
857.2035,0.02350429
857.6856,0.02348747
858.1677,0.0234721
858.6498,0.02345839
859.132,0.02344627
859.6141,0.02343518
860.0962,0.02342416
860.5783,0.02341252
861.0604,0.02340035
861.5425,0.023389
862.0247,0.02338071
862.5068,0.02337824
862.9889,0.02338398
863.471,0.02339914
863.9531,0.02342361
864.4352,0.0234559
864.9174,0.02349372
865.3995,0.02353416
865.8816,0.02357437
866.3637,0.02361187
866.8458,0.02364453
867.3279,0.023671
867.8101,0.02369078
868.2922,0.02370442
868.7743,0.02371345
869.2564,0.02372025
869.7385,0.02372768
870.2206,0.02373833
870.7028,0.02375422
871.1849,0.02377648
871.667,0.02380533
872.1491,0.02384027
872.6312,0.02388022
873.1133,0.02392378
873.5955,0.02396906
874.0776,0.02401395
874.5597,0.02405645
875.0418,0.02409499
875.5239,0.02412922
876.006,0.02416038
876.4882,0.02419159
876.9703,0.02422715
877.4524,0.02427161
877.9345,0.02432889
878.4166,0.02440095
878.8987,0.02448764
879.3809,0.02458688
879.863,0.02469571
880.3451,0.024811
880.8272,0.02493026
881.3093,0.02505201
881.7914,0.02517535
882.2736,0.02529937
882.7557,0.02542259
883.2378,0.0255424
883.7199,0.02565534
884.202,0.02575777
884.6841,0.02584654
885.1663,0.02592001
885.6484,0.02597852
886.1305,0.02602449
886.6126,0.02606183
887.0947,0.02609524
887.5768,0.02612952
888.059,0.02616821
888.5411,0.02621304
889.0232,0.02626331
889.5053,0.02631603
889.9874,0.02636634
890.4695,0.02640858
890.9517,0.02643818
891.4338,0.02645238
891.9159,0.02645131
892.398,0.02643777
892.8801,0.02641659
893.3622,0.02639312
893.8444,0.02637162
894.3265,0.02635483
894.8086,0.02634345
895.2907,0.02633673
895.7728,0.02633299
896.2549,0.02633025
896.7371,0.02632635
897.2192,0.02631868
897.7013,0.02630443
898.1834,0.02628054
898.6655,0.02624439
899.1476,0.02619473
899.6298,0.02613226
900.1119,0.02605989
900.594,0.02598178
901.0761,0.02590271
901.5582,0.02582676
902.0403,0.02575652
902.5225,0.02569351
903.0046,0.0256386
903.4867,0.02559272
903.9688,0.02555705
904.4509,0.02553261
904.933,0.02551941
905.4152,0.02551566
905.8973,0.02551774
906.3794,0.02552101
906.8615,0.02552092
907.3436,0.02551503
907.8257,0.0255037
908.3079,0.02549024
908.79,0.02547945
909.2721,0.02547629
909.7542,0.02548408
910.2363,0.02550345
910.7184,0.02553258
911.2006,0.02556792
911.6827,0.02560576
912.1648,0.02564282
912.6469,0.02567714
913.129,0.02570813
913.6111,0.02573629
914.0933,0.0257629
914.5754,0.02578983
915.0575,0.02581958
915.5396,0.02585481
916.0217,0.02589789
916.5038,0.02595033
916.986,0.02601201
917.4681,0.02608101
917.9502,0.02615381
918.4323,0.02622659
918.9144,0.02629589
919.3965,0.02635971
919.8787,0.02641777
920.3608,0.02647103
920.8429,0.02652075
921.325,0.02656759
921.8071,0.02661119
922.2892,0.02665038
922.7714,0.02668392
923.2535,0.02671126
923.7356,0.026733
924.2177,0.02675072
924.6998,0.02676634
925.1819,0.02678112
925.6641,0.02679522
926.1462,0.02680753
926.6283,0.02681634
927.1104,0.02681997
927.5925,0.02681756
928.0746,0.02680945
928.5568,0.0267972
929.0389,0.0267834
929.521,0.026771
930.0031,0.02676331
930.4852,0.02676334
930.9673,0.02677324
931.4495,0.0267939
931.9316,0.02682445
932.4137,0.02686233
932.8958,0.02690355
933.3779,0.02694405
933.86,0.0269809
934.3422,0.02701323
934.8243,0.02704274
935.3064,0.02707318
935.7885,0.02710939
936.2706,0.02715551
936.7527,0.02721441
937.2349,0.02728719
937.717,0.02737368
938.1991,0.02747312
938.6812,0.0275846
939.1633,0.02770716
939.6454,0.02783911
940.1276,0.02797754
940.6097,0.02811835
941.0918,0.02825649
941.5739,0.0283876
942.056,0.02850948
942.5381,0.02862301
943.0203,0.02873195
943.5024,0.02884152
943.9845,0.02895673
944.4666,0.02908017
944.9487,0.02921159
945.4308,0.02934838
945.913,0.02948745
946.3951,0.02962691
946.8772,0.02976713
947.3593,0.02991063
947.8414,0.0300608
948.3235,0.03022013
948.8057,0.03038896
949.2878,0.03056542
949.7699,0.03074654
950.252,0.03093
950.7341,0.03111526
951.2162,0.03130404
951.6984,0.03149912
952.1805,0.03170326
952.6626,0.03191736
953.1447,0.03214006
953.6268,0.03236816
954.1089,0.03259819
954.5911,0.03282772
955.0732,0.03305631
955.5553,0.03328535
956.0374,0.03351746
956.5195,0.03375524
957.0016,0.03400074
957.4838,0.03425534
957.9659,0.0345199
958.448,0.03479498
958.9301,0.0350807
959.4122,0.03537624
959.8943,0.03567947
960.3765,0.03598684
960.8586,0.03629449
961.3407,0.03659941
961.8228,0.03690099
962.3049,0.03720125
962.787,0.03750395
963.2692,0.03781295
963.7513,0.03812982
964.2334,0.03845301
964.7155,0.03877813
965.1976,0.03910032
965.6797,0.0394164
966.1619,0.03972662
966.644,0.0400348
967.1261,0.04034663
967.6082,0.04066695
968.0903,0.04099739
968.5724,0.04133603
969.0546,0.04167848
969.5367,0.04202052
970.0188,0.04235978
970.5009,0.04269684
970.983,0.04303387
971.4651,0.043373
971.9473,0.04371426
972.4294,0.04405533
972.9115,0.04439285
973.3936,0.04472502
973.8757,0.04505349
974.3578,0.04538397
974.84,0.04572389
975.3221,0.04608025
975.8042,0.04645629
976.2863,0.04685095
976.7684,0.04725971
977.2505,0.04767741
977.7327,0.04810123
978.2148,0.0485317
978.6969,0.0489721
979.179,0.0494258
979.6611,0.04989409
980.1432,0.05037496
980.6254,0.05086394
981.1075,0.05135686
981.5896,0.0518525
982.0717,0.05235364
982.5538,0.05286625
983.0359,0.05339621
983.5181,0.05394677
984.0002,0.0545168
984.4823,0.05510181
984.9644,0.0556962
985.4465,0.05629587
985.9286,0.0569005
986.4108,0.05751239
986.8929,0.05813421
987.375,0.05876638
987.8571,0.05940593
988.3392,0.06004739
988.8214,0.06068558
989.3035,0.06131762
989.7856,0.06194409
990.2677,0.06256736
990.7498,0.06318807
991.2319,0.06380302
991.7141,0.06440418
992.1962,0.06498048
992.6783,0.06552297
993.1604,0.06602796
993.6425,0.06649896
994.1246,0.06694409
994.6068,0.06737252
995.0889,0.06778966
995.571,0.06819467
996.0531,0.06858207
996.5352,0.06894526
997.0173,0.06928101
997.4995,0.0695914
997.9816,0.06988307
998.4637,0.07016349
998.9458,0.07043788
999.4279,0.0707067
999.91,0.07096697
1000.392,0.07121505
1000.874,0.07145049
1001.356,0.07167718
1001.839,0.07190219
1002.321,0.07213184
1002.803,0.07236876
1003.285,0.0726102
1003.767,0.07285009
1004.249,0.07308219
1004.731,0.07330416
1005.213,0.07351871
1005.695,0.07373247
1006.178,0.073952
1006.66,0.07418005
1007.142,0.07441442
1007.624,0.0746494
1008.106,0.07487974
1008.588,0.0751038
1009.07,0.075325
1009.552,0.07554989
1010.034,0.0757844
1010.517,0.07603015
1010.999,0.07628337
1011.481,0.07653674
1011.963,0.07678392
1012.445,0.07702276
1012.927,0.07725659
1013.409,0.07749146
1013.891,0.07773233
1014.374,0.07797899
1014.856,0.07822554
1015.338,0.07846297
1015.82,0.0786844
1016.302,0.07888936
1016.784,0.07908472
1017.266,0.07928141
1017.748,0.0794884
1018.23,0.07970841
1018.713,0.07993595
1019.195,0.08016057
1019.677,0.08037189
1020.159,0.08056603
1020.641,0.08074696
1021.123,0.08092452
1021.605,0.08110783
1022.087,0.0813006
1022.57,0.08149841
1023.052,0.08169164
1023.534,0.08187018
1024.016,0.08202969
1024.498,0.0821736
1024.98,0.08231143
1025.462,0.08245289
1025.944,0.08260203
1026.427,0.0827551
1026.909,0.08290235
1027.391,0.08303389
1027.873,0.08314488
1028.355,0.083239
1028.837,0.08332646
1029.319,0.08341945
1029.801,0.08352537
1030.283,0.08364405
1030.766,0.08376794
1031.248,0.08388682
1031.73,0.08399176
1032.212,0.08407843
1032.694,0.08414672
1033.176,0.08419761
1033.658,0.08423
1034.14,0.08423993
1034.622,0.08422253
1035.104,0.08417636
1035.587,0.08410623
1036.069,0.08402378
1036.551,0.08394294
1037.033,0.08387394
1037.515,0.08381905
1037.997,0.08377099
1038.479,0.08371633
1038.961,0.0836409
1039.444,0.08353654
1039.926,0.08340283
1040.408,0.08324543
1040.89,0.08307067
1041.372,0.0828812
1041.854,0.08267365
1042.336,0.08244095
1042.818,0.08217607
1043.301,0.08187648
1043.783,0.08154526
1044.265,0.08118859
1044.747,0.08081114
1045.229,0.0804126
1045.711,0.07998729
1046.193,0.0795278
1046.675,0.07903017
1047.157,0.07849786
1047.64,0.07794169
1048.122,0.07737582
1048.604,0.07681293
1049.086,0.07625798
1049.568,0.07570858
1050.05,0.07515816
1050.532,0.07460221
1051.014,0.07404273
1051.497,0.07348983
1051.979,0.07295737
1052.461,0.07245875
1052.943,0.07200095
1053.425,0.07158334
1053.907,0.07119966
1054.389,0.07084338
1054.871,0.07051215
1055.354,0.07020912
1055.836,0.06994049
1056.318,0.06971078
1056.8,0.06951878
1057.282,0.06935653
1057.764,0.06921201
1058.246,0.06907406
1058.728,0.06893782
1059.21,0.0688059
1059.693,0.06868616
1060.175,0.06858585
1060.657,0.06850711
1061.139,0.06844439
1061.621,0.06838732
1062.103,0.06832482
1062.585,0.06825106
1063.067,0.06816788
1063.549,0.06808319
1064.031,0.0680059
1064.514,0.0679405
1064.996,0.06788456
1065.478,0.06782962
1065.96,0.06776576
1066.442,0.06768613
1066.924,0.06759052
1067.406,0.06748451
1067.888,0.0673763
1068.371,0.06727149
1068.853,0.06717094
1069.335,0.06707059
1069.817,0.06696478
1070.299,0.06684913
1070.781,0.06672285
1071.263,0.06658786
1071.745,0.06644621
1072.228,0.06629712
1072.71,0.06613634
1073.192,0.06595715
1073.674,0.06575425
1074.156,0.06552654
1074.638,0.06527778
1075.12,0.0650142
1075.602,0.06474045
1076.084,0.06445636
1076.567,0.06415613
1077.049,0.06383067
1077.531,0.06347204
1078.013,0.06307753
1078.495,0.06265092
1078.977,0.0622006
1079.459,0.06173467
1079.941,0.06125771
1080.424,0.06076856
1080.906,0.06026221
1081.388,0.05973287
1081.87,0.05917788
1082.352,0.05859956
1082.834,0.05800373
1083.316,0.05739699
1083.798,0.0567837
1084.281,0.05616529
1084.763,0.05554106
1085.245,0.05491073
1085.727,0.05427657
1086.209,0.0536434
1086.691,0.05301696
1087.173,0.05240172
